Wavelength	Extrapolation Prescription	Cutoff prescription
nm	cm^2	cm^2
192.057	2.17E-21	2.17E-21
192.122	2.11E-21	2.11E-21
192.187	2.04E-21	2.04E-21
192.253	1.99E-21	1.99E-21
192.318	1.93E-21	1.93E-21
192.383	1.87E-21	1.87E-21
192.448	1.82E-21	1.82E-21
192.513	1.76E-21	1.76E-21
192.578	1.71E-21	1.71E-21
192.644	1.66E-21	1.66E-21
192.709	1.62E-21	1.62E-21
192.774	1.57E-21	1.57E-21
192.839	1.52E-21	1.52E-21
192.904	1.48E-21	1.48E-21
192.969	1.44E-21	1.44E-21
193.035	1.39E-21	1.39E-21
193.1	1.35E-21	1.35E-21
193.165	1.32E-21	1.32E-21
193.23	1.28E-21	1.28E-21
193.295	1.24E-21	1.24E-21
193.36	1.20E-21	1.20E-21
193.425	1.17E-21	1.17E-21
193.491	1.14E-21	1.14E-21
193.556	1.10E-21	1.10E-21
193.621	1.07E-21	1.07E-21
193.686	1.04E-21	1.04E-21
193.751	1.01E-21	1.01E-21
193.816	9.81E-22	9.81E-22
193.882	9.53E-22	9.53E-22
193.947	9.25E-22	9.25E-22
194.012	8.99E-22	8.99E-22
194.077	8.73E-22	8.73E-22
194.142	8.49E-22	8.49E-22
194.207	8.24E-22	8.24E-22
194.273	8.00E-22	8.00E-22
194.338	7.78E-22	7.78E-22
194.403	7.55E-22	7.55E-22
194.468	7.33E-22	7.33E-22
194.533	7.12E-22	7.12E-22
194.598	6.92E-22	6.92E-22
194.663	6.72E-22	6.72E-22
194.729	6.53E-22	6.53E-22
194.794	6.34E-22	6.34E-22
194.859	6.16E-22	6.16E-22
194.924	5.98E-22	5.98E-22
194.989	5.82E-22	5.82E-22
195.054	5.65E-22	5.65E-22
195.119	5.49E-22	5.49E-22
195.185	5.34E-22	5.34E-22
195.25	5.18E-22	5.18E-22
195.315	5.03E-22	5.03E-22
195.38	4.89E-22	4.89E-22
195.445	4.75E-22	4.75E-22
195.51	4.61E-22	4.61E-22
195.575	4.48E-22	4.48E-22
195.641	4.36E-22	4.36E-22
195.706	4.24E-22	4.24E-22
195.771	4.12E-22	4.12E-22
195.836	4.00E-22	4.00E-22
195.901	3.88E-22	3.88E-22
195.966	3.78E-22	3.78E-22
196.031	3.67E-22	3.67E-22
196.097	3.56E-22	3.56E-22
196.162	3.46E-22	3.46E-22
196.227	3.37E-22	3.37E-22
196.292	3.28E-22	3.28E-22
196.357	3.18E-22	3.18E-22
196.422	3.10E-22	3.10E-22
196.487	3.00E-22	3.00E-22
196.553	2.93E-22	2.93E-22
196.618	2.84E-22	2.84E-22
196.683	2.76E-22	2.76E-22
196.748	2.68E-22	2.68E-22
196.813	2.61E-22	2.61E-22
196.878	2.53E-22	2.53E-22
196.943	2.46E-22	2.46E-22
197.008	2.40E-22	2.40E-22
197.074	2.33E-22	2.33E-22
197.139	2.27E-22	2.27E-22
197.204	2.20E-22	2.20E-22
197.269	2.14E-22	2.14E-22
197.334	2.08E-22	2.08E-22
197.399	2.03E-22	2.03E-22
197.464	1.97E-22	1.97E-22
197.529	1.91E-22	1.91E-22
197.595	1.87E-22	1.87E-22
197.66	1.81E-22	1.81E-22
197.725	1.76E-22	1.76E-22
197.79	1.71E-22	1.71E-22
197.855	1.66E-22	1.66E-22
197.92	1.62E-22	1.62E-22
197.985	1.58E-22	1.58E-22
198.05	1.53E-22	1.53E-22
198.116	1.49E-22	1.49E-22
198.181	1.45E-22	1.45E-22
198.246	1.41E-22	1.41E-22
198.311	1.37E-22	1.37E-22
198.376	1.34E-22	1.34E-22
198.441	1.29E-22	1.29E-22
198.506	1.26E-22	1.26E-22
198.571	1.23E-22	1.23E-22
198.637	1.20E-22	1.20E-22
198.702	1.16E-22	1.16E-22
198.767	1.13E-22	1.13E-22
198.832	1.10E-22	1.10E-22
198.897	1.07E-22	1.07E-22
198.962	1.04E-22	1.04E-22
199.027	1.01E-22	1.01E-22
199.092	9.83E-23	9.83E-23
199.157	9.59E-23	9.59E-23
199.223	9.30E-23	9.30E-23
199.288	9.08E-23	9.08E-23
199.353	8.87E-23	8.87E-23
199.418	8.56E-23	8.56E-23
199.483	8.39E-23	8.39E-23
199.548	8.10E-23	8.10E-23
199.613	7.96E-23	7.96E-23
199.678	7.74E-23	7.74E-23
199.743	7.54E-23	7.54E-23
199.809	7.29E-23	7.29E-23
199.874	7.10E-23	7.10E-23
199.939	6.89E-23	6.89E-23
200.004	6.74E-23	6.74E-23
200.069	6.54E-23	6.54E-23
200.134	6.39E-23	6.39E-23
200.199	6.19E-23	6.19E-23
200.264	6.08E-23	6.08E-23
200.329	5.94E-23	5.94E-23
200.394	5.76E-23	5.76E-23
200.46	5.60E-23	5.60E-23
200.525	5.48E-23	5.48E-23
200.59	5.33E-23	5.33E-23
200.655	5.24E-23	5.24E-23
200.72	5.07E-23	5.07E-23
200.785	4.89E-23	4.89E-23
200.85	4.79E-23	4.79E-23
200.915	4.66E-23	4.66E-23
200.98	4.55E-23	4.55E-23
201.045	4.39E-23	4.39E-23
201.111	4.28E-23	4.28E-23
201.176	4.27E-23	4.27E-23
201.241	4.08E-23	4.08E-23
201.306	4.00E-23	4.00E-23
201.371	3.84E-23	3.84E-23
201.436	3.78E-23	3.78E-23
201.501	3.70E-23	3.70E-23
201.566	3.62E-23	3.62E-23
201.631	3.49E-23	3.49E-23
201.696	3.46E-23	3.46E-23
201.761	3.32E-23	3.32E-23
201.827	3.28E-23	3.28E-23
201.892	3.16E-23	3.16E-23
201.957	3.15E-23	3.15E-23
202.022	3.03E-23	3.03E-23
202.087	2.89E-23	2.89E-23
202.152	2.89E-23	2.89E-23
202.217	2.79E-23	2.79E-23
202.282	2.72E-23	2.72E-23
202.347	2.62E-23	2.62E-23
202.412	2.54E-23	2.54E-23
202.477	2.55E-23	2.55E-23
202.543	2.46E-23	2.46E-23
202.608	2.40E-23	2.40E-23
202.673	2.33E-23	2.33E-23
202.738	2.27E-23	2.27E-23
202.803	2.21E-23	2.21E-23
202.868	2.18E-23	2.18E-23
202.933	2.13E-23	2.13E-23
202.998	2.06E-23	2.06E-23
203.063	2.02E-23	2.02E-23
203.128	1.94E-23	1.94E-23
203.193	1.84E-23	1.84E-23
203.258	1.86E-23	1.86E-23
203.323	1.83E-23	1.83E-23
203.389	1.81E-23	1.81E-23
203.454	1.74E-23	1.74E-23
203.519	1.70E-23	1.70E-23
203.584	1.71E-23	1.71E-23
203.649	1.62E-23	1.62E-23
203.714	1.57E-23	1.57E-23
203.779	1.55E-23	1.55E-23
203.844	1.53E-23	1.53E-23
203.909	1.50E-23	1.50E-23
203.974	1.49E-23	1.49E-23
204.039	1.42E-23	1.42E-23
204.104	1.40E-23	1.40E-23
204.169	1.39E-23	1.39E-23
204.234	1.33E-23	1.33E-23
204.3	1.31E-23	1.31E-23
204.365	1.29E-23	1.29E-23
204.43	1.27E-23	1.27E-23
204.495	1.23E-23	1.23E-23
204.56	1.24E-23	1.24E-23
204.625	1.18E-23	1.18E-23
204.69	1.17E-23	1.17E-23
204.755	1.15E-23	1.15E-23
204.82	1.10E-23	1.10E-23
204.885	1.08E-23	1.08E-23
204.95	1.02E-23	1.02E-23
205.015	1.05E-23	1.05E-23
205.08	1.04E-23	1.04E-23
205.145	1.01E-23	1.01E-23
205.21	1.02E-23	1.02E-23
205.276	9.56E-24	9.56E-24
205.341	9.39E-24	9.39E-24
205.406	8.98E-24	8.98E-24
205.471	8.72E-24	8.72E-24
205.536	8.73E-24	8.73E-24
205.601	8.61E-24	8.61E-24
205.666	8.64E-24	8.64E-24
205.731	8.20E-24	8.20E-24
205.796	7.71E-24	7.71E-24
205.861	8.17E-24	8.17E-24
205.926	7.67E-24	7.67E-24
205.991	7.47E-24	7.67E-24
206.056	7.27E-24	7.40E-24
206.121	7.07E-24	7.34E-24
206.186	6.88E-24	6.76E-24
206.251	6.70E-24	7.17E-24
206.316	6.52E-24	6.92E-24
206.381	6.34E-24	6.65E-24
206.447	6.17E-24	6.40E-24
206.512	6.01E-24	6.24E-24
206.577	5.84E-24	6.44E-24
206.642	5.69E-24	6.25E-24
206.707	5.53E-24	6.02E-24
206.772	5.39E-24	5.98E-24
206.837	5.24E-24	6.29E-24
206.902	5.10E-24	5.89E-24
206.967	4.96E-24	5.08E-24
207.032	4.83E-24	5.64E-24
207.097	4.70E-24	5.64E-24
207.162	4.57E-24	5.51E-24
207.227	4.45E-24	5.39E-24
207.292	4.33E-24	5.09E-24
207.357	4.22E-24	5.09E-24
207.422	4.10E-24	4.87E-24
207.487	3.99E-24	4.45E-24
207.552	3.89E-24	4.67E-24
207.617	3.78E-24	4.80E-24
207.682	3.68E-24	4.46E-24
207.747	3.58E-24	4.53E-24
207.812	3.48E-24	4.47E-24
207.877	3.39E-24	4.51E-24
207.943	3.30E-24	4.29E-24
208.008	3.21E-24	4.38E-24
208.073	3.12E-24	3.91E-24
208.138	3.04E-24	4.18E-24
208.203	2.96E-24	4.01E-24
208.268	2.88E-24	3.85E-24
208.333	2.80E-24	3.57E-24
208.398	2.73E-24	3.65E-24
208.463	2.65E-24	3.81E-24
208.528	2.58E-24	3.11E-24
208.593	2.51E-24	3.16E-24
208.658	2.45E-24	3.62E-24
208.723	2.38E-24	3.61E-24
208.788	2.32E-24	3.23E-24
208.853	2.25E-24	3.13E-24
208.918	2.19E-24	2.98E-24
208.983	2.13E-24	2.95E-24
209.048	2.08E-24	3.29E-24
209.113	2.02E-24	3.00E-24
209.178	1.97E-24	2.99E-24
209.243	1.91E-24	2.78E-24
209.308	1.86E-24	2.59E-24
209.373	1.81E-24	2.91E-24
209.438	1.76E-24	2.79E-24
209.503	1.72E-24	2.40E-24
209.568	1.67E-24	2.37E-24
209.633	1.63E-24	2.69E-24
209.698	1.58E-24	2.82E-24
209.763	1.54E-24	2.67E-24
209.828	1.50E-24	2.31E-24
209.893	1.46E-24	2.12E-24
209.958	1.42E-24	2.57E-24
210.023	1.38E-24	2.25E-24
210.088	1.34E-24	2.37E-24
210.153	1.31E-24	2.57E-24
210.219	1.27E-24	2.19E-24
210.284	1.24E-24	2.46E-24
210.349	1.21E-24	2.39E-24
210.414	1.17E-24	1.87E-24
210.479	1.14E-24	1.61E-24
210.544	1.11E-24	2.14E-24
210.609	1.08E-24	1.74E-24
210.674	1.05E-24	2.03E-24
210.739	1.02E-24	1.70E-24
210.804	9.96E-25	1.45E-24
210.869	9.69E-25	1.64E-24
210.934	9.43E-25	1.91E-24
210.999	9.18E-25	1.83E-24
211.064	8.93E-25	1.86E-24
211.129	8.69E-25	1.86E-24
211.194	8.46E-25	1.25E-24
211.259	8.23E-25	1.56E-24
211.324	8.01E-25	1.44E-24
211.389	7.80E-25	1.34E-24
211.454	7.59E-25	1.86E-24
211.519	7.38E-25	1.38E-24
211.584	7.18E-25	1.46E-24
211.649	6.99E-25	1.51E-24
211.714	6.80E-25	1.77E-24
211.779	6.62E-25	1.50E-24
211.844	6.44E-25	1.55E-24
211.909	6.27E-25	1.29E-24
211.974	6.10E-25	1.72E-24
212.039	5.94E-25	1.51E-24
212.104	5.78E-25	1.50E-24
212.169	5.62E-25	1.41E-24
212.234	5.47E-25	1.64E-24
212.299	5.33E-25	8.43E-25
212.364	5.18E-25	1.30E-24
212.429	5.04E-25	1.53E-24
212.494	4.91E-25	1.22E-24
212.559	4.78E-25	1.55E-24
212.624	4.65E-25	7.10E-25
212.689	4.52E-25	7.97E-25
212.754	4.40E-25	9.50E-25
212.819	4.28E-25	1.21E-24
212.884	4.17E-25	1.13E-24
212.949	4.06E-25	9.34E-25
213.014	3.95E-25	1.21E-24
213.079	3.84E-25	9.56E-25
213.144	3.74E-25	9.98E-25
213.209	3.64E-25	8.13E-25
213.274	3.54E-25	5.61E-25
213.339	3.44E-25	1.01E-24
213.404	3.35E-25	1.27E-24
213.469	3.26E-25	7.84E-25
213.534	3.17E-25	1.34E-24
213.599	3.09E-25	5.18E-25
213.664	3.01E-25	8.71E-25
213.729	2.93E-25	5.14E-25
213.794	2.85E-25	9.11E-25
213.859	2.77E-25	5.53E-25
213.924	2.70E-25	8.31E-25
213.989	2.62E-25	1.37E-24
214.054	2.55E-25	9.79E-25
214.119	2.48E-25	6.45E-25
214.184	2.42E-25	8.77E-25
214.249	2.35E-25	7.73E-25
214.314	2.29E-25	2.81E-25
214.379	2.23E-25	8.36E-25
214.444	2.17E-25	8.42E-25
214.509	2.11E-25	4.28E-25
214.574	2.05E-25	2.05E-25
214.638	2.00E-25	5.84E-25
214.703	1.94E-25	6.00E-25
214.768	1.89E-25	2.93E-25
214.833	1.84E-25	7.91E-25
214.898	1.79E-25	4.96E-25
214.963	1.74E-25	2.92E-25
215.028	1.70E-25	5.93E-25
215.093	1.65E-25	6.06E-25
215.158	1.61E-25	1.23E-25
215.223	1.56E-25	5.55E-25
215.288	1.52E-25	5.90E-25
215.353	1.48E-25	7.54E-25
215.418	1.44E-25	6.42E-25
215.483	1.40E-25	8.31E-25
215.548	1.37E-25	2.98E-25
215.613	1.33E-25	2.40E-25
215.678	1.29E-25	1.61E-25
215.743	1.26E-25	6.96E-25
215.808	1.22E-25	5.72E-25
215.873	1.19E-25	3.20E-25
215.938	1.16E-25	5.39E-25
216.003	1.13E-25	5.97E-25
216.068	1.10E-25	2.91E-25
216.133	1.07E-25	1.88E-25
216.198	1.04E-25	3.82E-25
216.263	1.01E-25	1.53E-25
216.328	9.85E-26	4.82E-25
216.393	9.58E-26	
216.458	9.33E-26	
216.523	9.08E-26	
216.588	8.83E-26	
216.653	8.59E-26	
216.718	8.36E-26	
216.783	8.14E-26	
216.848	7.92E-26	
216.912	7.71E-26	
216.977	7.50E-26	
217.042	7.30E-26	
217.107	7.10E-26	
217.172	6.91E-26	
217.237	6.73E-26	
217.302	6.55E-26	
217.367	6.37E-26	
217.432	6.20E-26	
217.497	6.03E-26	
217.562	5.87E-26	
217.627	5.71E-26	
217.692	5.56E-26	
217.757	5.41E-26	
217.822	5.27E-26	
217.887	5.12E-26	
217.952	4.99E-26	
218.017	4.85E-26	
218.082	4.72E-26	
218.147	4.60E-26	
218.212	4.47E-26	
218.277	4.35E-26	
218.342	4.23E-26	
218.406	4.12E-26	
218.471	4.01E-26	
218.536	3.90E-26	
218.601	3.80E-26	
218.666	3.70E-26	
218.731	3.60E-26	
218.796	3.50E-26	
218.861	3.41E-26	
218.926	3.31E-26	
218.991	3.23E-26	
219.056	3.14E-26	
219.121	3.05E-26	
219.186	2.97E-26	
219.251	2.89E-26	
219.316	2.82E-26	
219.381	2.74E-26	
219.446	2.67E-26	
219.511	2.59E-26	
219.575	2.52E-26	
219.64	2.46E-26	
219.705	2.39E-26	
219.77	2.33E-26	
219.835	2.26E-26	
219.9	2.20E-26	
219.965	2.14E-26	
220.03	2.09E-26	
220.095	2.03E-26	
220.16	1.98E-26	
220.225	1.92E-26	
220.29	1.87E-26	
220.355	1.82E-26	
220.42	1.77E-26	
220.485	1.72E-26	
220.549	1.68E-26	
220.614	1.63E-26	
220.679	1.59E-26	
220.744	1.55E-26	
220.809	1.51E-26	
220.874	1.46E-26	
220.939	1.43E-26	
221.004	1.39E-26	
221.069	1.35E-26	
221.134	1.31E-26	
221.199	1.28E-26	
221.264	1.24E-26	
221.329	1.21E-26	
221.394	1.18E-26	
221.458	1.15E-26	
221.523	1.12E-26	
221.588	1.09E-26	
221.653	1.06E-26	
221.718	1.03E-26	
221.783	1.00E-26	
221.848	9.74E-27	
221.913	9.47E-27	
221.978	9.22E-27	
222.043	8.97E-27	
222.108	8.73E-27	
222.173	8.50E-27	
222.238	8.27E-27	
222.302	8.05E-27	
222.367	7.83E-27	
222.432	7.62E-27	
222.497	7.42E-27	
222.562	7.22E-27	
222.627	7.02E-27	
222.692	6.83E-27	
222.757	6.65E-27	
222.822	6.47E-27	
222.887	6.30E-27	
222.952	6.13E-27	
223.016	5.96E-27	
223.081	5.80E-27	
223.146	5.65E-27	
223.211	5.50E-27	
223.276	5.35E-27	
223.341	5.21E-27	
223.406	5.07E-27	
223.471	4.93E-27	
223.536	4.80E-27	
223.601	4.67E-27	
223.666	4.54E-27	
223.73	4.42E-27	
223.795	4.30E-27	
223.86	4.19E-27	
223.925	4.07E-27	
223.99	3.96E-27	
224.055	3.86E-27	
224.12	3.75E-27	
224.185	3.65E-27	
224.25	3.56E-27	
224.315	3.46E-27	
224.379	3.37E-27	
224.444	3.28E-27	
224.509	3.19E-27	
224.574	3.10E-27	
224.639	3.02E-27	
224.704	2.94E-27	
224.769	2.86E-27	
224.834	2.78E-27	
224.899	2.71E-27	
224.964	2.64E-27	
225.028	2.56E-27	
225.093	2.50E-27	
225.158	2.43E-27	
225.223	2.36E-27	
225.288	2.30E-27	
225.353	2.24E-27	
225.418	2.18E-27	
225.483	2.12E-27	
225.548	2.06E-27	
225.612	2.01E-27	
225.677	1.95E-27	
225.742	1.90E-27	
225.807	1.85E-27	
225.872	1.80E-27	
225.937	1.75E-27	
226.002	1.71E-27	
226.067	1.66E-27	
226.132	1.61E-27	
226.196	1.57E-27	
226.261	1.53E-27	
226.326	1.49E-27	
226.391	1.45E-27	
226.456	1.41E-27	
226.521	1.37E-27	
226.586	1.33E-27	
226.651	1.30E-27	
226.715	1.26E-27	
226.78	1.23E-27	
226.845	1.20E-27	
226.91	1.16E-27	
226.975	1.13E-27	
227.04	1.10E-27	
227.105	1.07E-27	
227.17	1.04E-27	
227.234	1.02E-27	
227.299	9.89E-28	
227.364	9.63E-28	
227.429	9.37E-28	
227.494	9.12E-28	
227.559	8.87E-28	
227.624	8.63E-28	
227.689	8.40E-28	
227.753	8.18E-28	
227.818	7.96E-28	
227.883	7.74E-28	
227.948	7.53E-28	
228.013	7.33E-28	
228.078	7.14E-28	
228.143	6.94E-28	
228.208	6.76E-28	
228.272	6.58E-28	
228.337	6.40E-28	
228.402	6.23E-28	
228.467	6.06E-28	
228.532	5.90E-28	
228.597	5.74E-28	
228.662	5.58E-28	
228.726	5.43E-28	
228.791	5.29E-28	
228.856	5.15E-28	
228.921	5.01E-28	
228.986	4.87E-28	
229.051	4.74E-28	
229.116	4.62E-28	
229.18	4.49E-28	
229.245	4.37E-28	
229.31	4.25E-28	
229.375	4.14E-28	
229.44	4.03E-28	
229.505	3.92E-28	
229.57	3.81E-28	
229.634	3.71E-28	
229.699	3.61E-28	
229.764	3.52E-28	
229.829	3.42E-28	
229.894	3.33E-28	
229.959	3.24E-28	
230.024	3.15E-28	
230.088	3.07E-28	
230.153	2.99E-28	
230.218	2.91E-28	
230.283	2.83E-28	
230.348	2.75E-28	
230.413	2.68E-28	